 PENELOPE (v. 2011)  Material data file ...............
 Material: Stainless Steel                                               
 Mass density = 8.00000000E+00 g/cm**3
 Number of elements in the molecule =  2
   atomic number = 26,  atoms/molecule = 1.00000000E+00
   atomic number = 24,  atoms/molecule = 1.19340377E-01
 Mean excitation energy = 2.82981818E+02 eV
 Number of oscillators = 15 (E/P inelastic model)
   1  2.23868075E+00  0.00000000E+00  1.54808626E+01   0  30
   2  6.47736151E+00  8.94472732E+00  2.72268227E+01   0  30
   3  7.16042260E-01  4.83333333E+01  1.24021608E+02  24  30
   4  4.00000000E+00  5.90000000E+01  1.52199232E+02  26   7
   5  2.00000000E+00  6.10000000E+01  1.56841599E+02  26   6
   6  2.38680753E-01  8.00000000E+01  2.05137787E+02  24   5
   7  2.00000000E+00  9.80000000E+01  2.51526824E+02  26   5
   8  4.77361506E-01  5.80000000E+02  1.48695937E+03  24   4
   9  2.38680753E-01  5.89000000E+02  1.51002688E+03  24   3
  10  2.38680753E-01  7.02000000E+02  1.79972444E+03  24   2
  11  4.00000000E+00  7.13000000E+02  1.82799853E+03  26   4
  12  2.00000000E+00  7.26000000E+02  1.86128693E+03  26   3
  13  2.00000000E+00  8.51000000E+02  2.18174421E+03  26   2
  14  2.38680753E-01  5.99500000E+03  1.53694018E+04  24   1
  15  2.00000000E+00  7.11700000E+03  1.82458802E+04  26   1
 Number of shells = 15 (Compton IA model)
   1  2.23868075E+00  0.00000000E+00  8.58837857E-01   0  30
   2  6.47736151E+00  8.94472732E+00  2.05421814E-01   0  30
   3  7.16042260E-01  4.83333333E+01  2.53000000E-01  24  30
   4  4.00000000E+00  5.90000000E+01  2.23000000E-01  26   7
   5  2.00000000E+00  6.10000000E+01  2.23000000E-01  26   6
   6  2.38680753E-01  8.00000000E+01  3.98000000E-01  24   5
   7  2.00000000E+00  9.80000000E+01  3.55000000E-01  26   5
   8  4.77361506E-01  5.80000000E+02  7.16000000E-02  24   4
   9  2.38680753E-01  5.89000000E+02  7.16000000E-02  24   3
  10  2.38680753E-01  7.02000000E+02  1.40000000E-01  24   2
  11  4.00000000E+00  7.13000000E+02  6.50000000E-02  26   4
  12  2.00000000E+00  7.26000000E+02  6.50000000E-02  26   3
  13  2.00000000E+00  8.51000000E+02  1.27000000E-01  26   2
  14  2.38680753E-01  5.99500000E+03  3.65000000E-02  24   1
  15  2.00000000E+00  7.11700000E+03  3.36000000E-02  26   1
 *** RELAX:  Z = 26,  no. of shells = 10,  no. of transitions = 148
   1 1s1/2 2  7.11700E+03
   2 2s1/2 2  8.51000E+02
   3 2p1/2 2  7.26000E+02
   4 2p3/2 4  7.13000E+02
   5 3s1/2 2  9.80000E+01
   6 3p1/2 2  6.10000E+01
   7 3p3/2 4  5.90000E+01
   8 3d3/2 4  9.00000E+00
   9 3d5/2 2  9.00000E+00
  10 4s1/2 2  7.87000E+00
   1  3  0  1.01391E-01  6.39103E+03
   1  4  0  1.98621E-01  6.40401E+03
   1  6  0  1.22111E-02  7.05818E+03
   1  7  0  2.40042E-02  7.05818E+03
   1  8  0  6.00794E-06  7.10826E+03
   1  9  0  8.77226E-06  7.10826E+03
   1  2  2  4.47039E-02  5.39748E+03
   1  2  3  4.96309E-02  5.50689E+03
   1  2  4  9.05528E-02  5.51975E+03
   1  2  5  1.20010E-02  6.13943E+03
   1  2  6  6.37861E-03  6.17240E+03
   1  2  7  1.15700E-02  6.17399E+03
   1  2  8  1.85335E-04  6.22753E+03
   1  2  9  2.57546E-04  6.22770E+03
   1  2 10  1.06145E-03  6.23291E+03
   1  3  3  8.91045E-03  5.61630E+03
   1  3  4  2.13819E-01  5.62916E+03
   1  3  5  5.68040E-03  6.24884E+03
   1  3  6  2.15909E-03  6.28181E+03
   1  3  7  2.36911E-02  6.28340E+03
   1  3  8  2.57540E-04  6.33694E+03
   1  3  9  9.60385E-04  6.33711E+03
   1  3 10  4.93427E-04  6.34232E+03
   1  4  4  1.19207E-01  5.64202E+03
   1  4  5  1.04085E-02  6.26170E+03
   1  4  6  2.36893E-02  6.29467E+03
   1  4  7  2.68353E-02  6.29626E+03
   1  4  8  1.19389E-03  6.34980E+03
   1  4  9  1.17463E-03  6.34997E+03
   1  4 10  9.02593E-04  6.35518E+03
   1  5  5  8.02277E-04  6.88138E+03
   1  5  6  7.39263E-04  6.91435E+03
   1  5  7  1.34525E-03  6.91594E+03
   1  5  8  1.93914E-05  6.96948E+03
   1  5  9  2.66629E-05  6.96965E+03
   1  5 10  1.40581E-04  6.97486E+03
   1  6  6  1.28144E-04  6.94732E+03
   1  6  7  2.71062E-03  6.94891E+03
   1  6  8  2.21776E-05  7.00245E+03
   1  6  9  8.87081E-05  7.00262E+03
   1  6 10  6.40678E-05  7.00783E+03
   1  7  7  1.58655E-03  6.95050E+03
   1  7  8  1.16223E-04  7.00404E+03
   1  7  9  1.11167E-04  7.00421E+03
   1  7 10  1.21269E-04  7.00942E+03
   1  8  9  3.85858E-06  7.05775E+03
   1  8 10  3.85858E-06  7.06296E+03
   1  9 10  3.51272E-06  7.06313E+03
   2  3  0  2.87212E-05  1.09410E+02
   2  4  0  1.12411E-04  1.22270E+02
   2  6  0  5.33553E-04  7.92200E+02
   2  7  0  7.92105E-04  7.92200E+02
   2  8  0  1.62101E-06  8.44520E+02
   2  9  0  2.20171E-06  8.45440E+02
   2  3  8  4.09703E-02  9.65000E+01
   2  3  9  6.68427E-02  9.66700E+01
   2  3 10  6.19976E-03  1.01880E+02
   2  4  6  6.47652E-02  5.42300E+01
   2  4  7  1.45310E-01  5.58200E+01
   2  4  8  9.68238E-02  1.09360E+02
   2  4  9  1.37175E-01  1.09530E+02
   2  4 10  1.13749E-02  1.14740E+02
   2  5  5  1.42253E-02  6.40940E+02
   2  5  6  2.56412E-02  6.73910E+02
   2  5  7  5.02067E-02  6.75500E+02
   2  5  8  1.57957E-02  7.29040E+02
   2  5  9  2.33060E-02  7.29210E+02
   2  5 10  2.24577E-03  7.34420E+02
   2  6  6  4.09652E-04  7.06880E+02
   2  6  7  6.68243E-04  7.08470E+02
   2  6  8  2.32428E-04  7.62010E+02
   2  6  9  4.40741E-03  7.62180E+02
   2  6 10  1.77081E-03  7.67390E+02
   2  7  7  1.17810E-03  7.10060E+02
   2  7  8  4.46042E-03  7.63600E+02
   2  7  9  3.23254E-03  7.63770E+02
   2  7 10  3.28901E-03  7.68980E+02
   2  8  8  2.58444E-04  8.17140E+02
   2  8  9  1.35249E-02  8.17310E+02
   2  8 10  1.10876E-03  8.22520E+02
   2  9  9  3.53869E-03  8.17480E+02
   2  9 10  1.55434E-03  8.22690E+02
   3  5  0  4.03768E-03  6.27800E+02
   3  7  0  9.18115E-06  6.70400E+02
   3  8  0  1.40199E-03  7.18320E+02
   3 10  0  8.27386E-05  7.26020E+02
   3  5  5  5.72017E-03  5.31530E+02
   3  5  6  1.04744E-01  5.64500E+02
   3  5  7  8.48542E-03  5.66090E+02
   3  5  8  3.52272E-03  6.19630E+02
   3  5  9  6.29489E-03  6.19800E+02
   3  5 10  8.72234E-04  6.25010E+02
   3  6  6  8.91640E-02  5.97470E+02
   3  6  7  3.09321E-01  5.99060E+02
   3  6  8  6.45901E-02  6.52600E+02
   3  6  9  1.25120E-01  6.52770E+02
   3  6 10  9.30123E-03  6.57980E+02
   3  7  7  8.61400E-03  6.00650E+02
   3  7  8  7.55051E-02  6.54190E+02
   3  7  9  1.14600E-02  6.54360E+02
   3  7 10  6.69397E-04  6.59570E+02
   3  8  8  2.94353E-02  7.07730E+02
   3  8  9  1.34354E-01  7.07900E+02
   3  8 10  3.10265E-04  7.13110E+02
   3  9  9  6.45717E-03  7.08070E+02
   3  9 10  5.27395E-04  7.13280E+02
   4  5  0  3.75953E-03  6.15300E+02
   4  6  0  4.56623E-06  6.50100E+02
   4  7  0  4.45063E-06  6.56800E+02
   4  8  0  1.14991E-04  7.04800E+02
   4  9  0  1.28521E-03  7.04800E+02
   4 10  0  7.69576E-05  7.13160E+02
   4  5  5  5.47610E-03  5.18670E+02
   4  5  6  3.75614E-03  5.51640E+02
   4  5  7  1.02560E-01  5.53230E+02
   4  5  8  4.09120E-03  6.06770E+02
   4  5  9  5.60270E-03  6.06940E+02
   4  5 10  8.34691E-04  6.12150E+02
   4  6  6  1.43545E-03  5.84610E+02
   4  6  7  1.55075E-01  5.86200E+02
   4  6  8  3.86376E-03  6.39740E+02
   4  6  9  3.74865E-02  6.39910E+02
   4  6 10  2.90883E-04  6.45120E+02
   4  7  7  2.29412E-01  5.87790E+02
   4  7  8  9.02988E-02  6.41330E+02
   4  7  9  1.34973E-01  6.41500E+02
   4  7 10  9.09931E-03  6.46710E+02
   4  8  8  5.93307E-03  6.94870E+02
   4  8  9  1.20726E-01  6.95040E+02
   4  8 10  4.31648E-04  7.00250E+02
   4  9  9  8.28033E-02  6.95210E+02
   4  9 10  6.04329E-04  7.00420E+02
   5  8  8  1.07986E-03  7.51900E+01
   5  8  9  2.33924E-02  7.53600E+01
   5  8 10  2.57210E-02  8.05700E+01
   5  9  9  6.79262E-03  7.55300E+01
   5  9 10  3.82746E-02  8.07400E+01
   6  8  0  3.89240E-06  5.51300E+01
   6 10  0  3.74790E-07  6.05100E+01
   7  8  0  3.49259E-07  5.35400E+01
   7  9  0  3.18269E-06  5.37100E+01
   7 10  0  1.15860E-07  5.89200E+01
   2 30 30  2.58014E-01  3.13991E+01
   3 30  0  2.04719E-10  1.28600E+01
   5 30  0  1.44183E-05  3.40828E+01
   5 30 30  9.04726E-01  2.23033E+01
   6 30 30  9.99996E-01  4.28322E+01
   7 30 30  9.99996E-01  4.13518E+01
 *** RELAX:  Z = 24,  no. of shells = 10,  no. of transitions = 142
   1 1s1/2 2  5.99500E+03
   2 2s1/2 2  7.02000E+02
   3 2p1/2 2  5.89000E+02
   4 2p3/2 4  5.80000E+02
   5 3s1/2 2  8.00000E+01
   6 3p1/2 2  4.90000E+01
   7 3p3/2 4  4.80000E+01
   8 3d3/2 4  8.25000E+00
   9 3d5/2 1  7.50800E+00
  10 4s1/2 1  7.50800E+00
   1  3  0  8.25759E-02  5.40554E+03
   1  4  0  1.62090E-01  5.41480E+03
   1  6  0  9.49389E-03  5.94682E+03
   1  7  0  1.87010E-02  5.94682E+03
   1  8  0  2.52540E-06  5.98697E+03
   1  9  0  3.69550E-06  5.98697E+03
   1  2  2  4.89637E-02  4.58292E+03
   1  2  3  5.42769E-02  4.68052E+03
   1  2  4  1.00496E-01  4.68945E+03
   1  2  5  1.27805E-02  5.19107E+03
   1  2  6  6.65910E-03  5.21901E+03
   1  2  7  1.22647E-02  5.22006E+03
   1  2  8  1.31005E-04  5.26380E+03
   1  2  9  1.83964E-04  5.26389E+03
   1  2 10  5.24035E-04  5.26430E+03
   1  3  3  9.81425E-03  4.77812E+03
   1  3  4  2.37473E-01  4.78705E+03
   1  3  5  6.07386E-03  5.28867E+03
   1  3  6  2.27732E-03  5.31661E+03
   1  3  7  2.52704E-02  5.31766E+03
   1  3  8  1.83966E-04  5.36140E+03
   1  3  9  6.91293E-04  5.36149E+03
   1  3 10  2.45286E-04  5.36190E+03
   1  4  4  1.33078E-01  4.79598E+03
   1  4  5  1.12890E-02  5.29760E+03
   1  4  6  2.52740E-02  5.32554E+03
   1  4  7  2.87383E-02  5.32659E+03
   1  4  8  8.58576E-04  5.37033E+03
   1  4  9  8.47392E-04  5.37042E+03
   1  4 10  4.54356E-04  5.37083E+03
   1  5  5  8.75710E-04  5.79922E+03
   1  5  6  7.92885E-04  5.82716E+03
   1  5  7  1.46749E-03  5.82821E+03
   1  5  8  1.47928E-05  5.87195E+03
   1  5  9  2.07097E-05  5.87204E+03
   1  5 10  7.10061E-05  5.87245E+03
   1  6  6  1.35594E-04  5.85510E+03
   1  6  7  2.86524E-03  5.85615E+03
   1  6  8  1.76859E-05  5.89989E+03
   1  6  9  6.48504E-05  5.89998E+03
   1  6 10  3.24257E-05  5.90039E+03
   1  7  7  1.69746E-03  5.85720E+03
   1  7  8  8.22897E-05  5.90094E+03
   1  7  9  8.22897E-05  5.90103E+03
   1  7 10  6.09548E-05  5.90144E+03
   1  8  9  2.78750E-06  5.94477E+03
   2  3  0  4.18737E-05  9.76000E+01
   2  4  0  1.48369E-04  1.06530E+02
   2  6  0  4.33407E-04  6.53900E+02
   2  7  0  6.32756E-04  6.53900E+02
   2  8  0  9.01435E-07  6.93470E+02
   2  9  0  1.28349E-06  6.97480E+02
   2  3  8  3.48094E-02  9.11400E+01
   2  3  9  5.71581E-02  9.12300E+01
   2  3 10  2.94252E-03  9.16400E+01
   2  4  6  6.41046E-02  5.52800E+01
   2  4  7  1.46970E-01  5.63300E+01
   2  4  8  8.02910E-02  1.00070E+02
   2  4  9  1.13541E-01  1.00160E+02
   2  4 10  5.52176E-03  1.00570E+02
   2  5  5  1.58591E-02  5.28960E+02
   2  5  6  2.81218E-02  5.56900E+02
   2  5  7  5.52047E-02  5.57950E+02
   2  5  8  1.26572E-02  6.01690E+02
   2  5  9  1.87070E-02  6.01780E+02
   2  5 10  1.15939E-03  6.02190E+02
   2  6  6  5.42863E-04  5.84840E+02
   2  6  7  6.59238E-04  5.85890E+02
   2  6  8  2.01268E-04  6.29630E+02
   2  6  9  3.63756E-03  6.29720E+02
   2  6 10  9.91538E-04  6.30130E+02
   2  7  7  1.53759E-03  5.86940E+02
   2  7  8  4.03198E-03  6.30680E+02
   2  7  9  2.94930E-03  6.30770E+02
   2  7 10  1.98307E-03  6.31180E+02
   2  8  8  1.01624E-04  6.74420E+02
   2  8  9  5.59607E-03  6.74510E+02
   2  8 10  3.02273E-04  6.74920E+02
   2  9  9  1.98500E-03  6.74600E+02
   2  9 10  5.77984E-04  6.75010E+02
   3  5  0  3.06272E-03  5.10220E+02
   3  7  0  5.01634E-06  5.43000E+02
   3  8  0  5.24554E-04  5.82900E+02
   3 10  0  5.75784E-05  5.83780E+02
   3  5  5  7.19812E-03  4.31360E+02
   3  5  6  1.29803E-01  4.59300E+02
   3  5  7  1.01967E-02  4.60350E+02
   3  5  8  3.76468E-03  5.04090E+02
   3  5  9  5.66444E-03  5.04180E+02
   3  5 10  5.14137E-04  5.04590E+02
   3  6  6  1.12344E-01  4.87240E+02
   3  6  7  3.91850E-01  4.88290E+02
   3  6  8  5.95615E-02  5.32030E+02
   3  6  9  1.16969E-01  5.32120E+02
   3  6 10  5.51139E-03  5.32530E+02
   3  7  7  1.04751E-02  4.89340E+02
   3  7  8  6.51357E-02  5.33080E+02
   3  7  9  1.02318E-02  5.33170E+02
   3  7 10  3.66011E-04  5.33580E+02
   3  8  8  1.11616E-02  5.76820E+02
   3  8  9  5.12258E-02  5.76910E+02
   3  8 10  9.00498E-05  5.77320E+02
   3  9  9  4.06976E-03  5.77000E+02
   3  9 10  2.17875E-04  5.77410E+02
   4  5  0  2.89130E-03  5.00330E+02
   4  6  0  2.43310E-06  5.26900E+02
   4  7  0  2.37970E-06  5.33200E+02
   4  8  0  4.10181E-05  5.72900E+02
   4  9  0  4.70291E-04  5.72900E+02
   4 10  0  5.43441E-05  5.74850E+02
   4  5  5  6.92712E-03  4.22430E+02
   4  5  6  4.63469E-03  4.50370E+02
   4  5  7  1.28814E-01  4.51420E+02
   4  5  8  3.79888E-03  4.95160E+02
   4  5  9  5.66920E-03  4.95250E+02
   4  5 10  4.96566E-04  4.95660E+02
   4  6  6  1.84285E-03  4.78310E+02
   4  6  7  1.99140E-01  4.79360E+02
   4  6  8  3.45295E-03  5.23100E+02
   4  6  9  3.43324E-02  5.23190E+02
   4  6 10  1.72218E-04  5.23600E+02
   4  7  7  2.88700E-01  4.80410E+02
   4  7  8  8.33075E-02  5.24150E+02
   4  7  9  1.23152E-01  5.24240E+02
   4  7 10  5.36074E-03  5.24650E+02
   4  8  8  2.99602E-03  5.67890E+02
   4  8  9  6.13951E-02  5.67980E+02
   4  8 10  1.48972E-04  5.68390E+02
   4  9  9  4.19708E-02  5.68070E+02
   4  9 10  2.26225E-04  5.68480E+02
   5  8  8  4.91707E-04  6.62700E+01
   5  8  9  2.26380E-02  6.63600E+01
   5  8 10  1.14514E-02  6.67700E+01
   5  9  9  8.08526E-03  6.64500E+01
   5  9 10  2.56138E-02  6.68600E+01
   2 30 30  3.36596E-01  3.25767E+01
   5 30  0  7.96236E-06  2.86676E+01
   5 30 30  9.31712E-01  2.22847E+01
   6 30  0  8.45349E-07  4.48256E+01
   6 30 30  9.99999E-01  3.84358E+01
   7 30  0  7.14377E-07  4.38327E+01
   7 30 30  9.99999E-01  3.74267E+01
 *** Electron scaled bremss x-section,  ZEQ = 2.57942E+01,  NDATA =  57
 1.00E+03 2.45800E+00 2.49095E+00 2.52333E+00 2.55475E+00 2.58531E+00
          2.64429E+00 2.70001E+00 2.75234E+00 2.80141E+00 2.84776E+00
          2.89222E+00 2.93514E+00 2.97673E+00 3.01769E+00 3.05959E+00
          3.10384E+00 3.15038E+00 3.19856E+00 3.24701E+00 3.29273E+00
          3.33186E+00 3.34949E+00 3.37013E+00 3.39086E+00 3.41588E+00
          3.42276E+00 3.42842E+00 3.42912E+00 3.42972E+00 3.42978E+00
          3.42985E+00 3.42986E+00                                     2.564E+00
 1.50E+03 3.10744E+00 3.13635E+00 3.16482E+00 3.19257E+00 3.21977E+00
          3.27316E+00 3.32471E+00 3.37407E+00 3.42093E+00 3.46499E+00
          3.50606E+00 3.54414E+00 3.57961E+00 3.61326E+00 3.64709E+00
          3.68295E+00 3.72130E+00 3.76257E+00 3.80732E+00 3.85625E+00
          3.90878E+00 3.93421E+00 3.95471E+00 3.96622E+00 3.98238E+00
          3.98845E+00 3.99110E+00 3.99118E+00 3.99160E+00 3.99164E+00
          3.99184E+00 3.99172E+00                                     3.084E+00
 2.00E+03 3.62286E+00 3.65242E+00 3.68127E+00 3.70891E+00 3.73558E+00
          3.78696E+00 3.83510E+00 3.87963E+00 3.92027E+00 3.95689E+00
          3.98946E+00 4.01811E+00 4.04349E+00 4.06669E+00 4.09031E+00
          4.11673E+00 4.14673E+00 4.18108E+00 4.22069E+00 4.26632E+00
          4.31731E+00 4.34211E+00 4.36043E+00 4.36828E+00 4.37962E+00
          4.38441E+00 4.38587E+00 4.38577E+00 4.38607E+00 4.38609E+00
          4.38629E+00 4.38618E+00                                     3.485E+00
 3.00E+03 4.40793E+00 4.44941E+00 4.48854E+00 4.52352E+00 4.55478E+00
          4.60838E+00 4.64933E+00 4.67827E+00 4.69679E+00 4.70800E+00
          4.71592E+00 4.72189E+00 4.72683E+00 4.73205E+00 4.73990E+00
          4.75242E+00 4.76966E+00 4.79039E+00 4.81366E+00 4.84089E+00
          4.87310E+00 4.88971E+00 4.90290E+00 4.90942E+00 4.91561E+00
          4.91701E+00 4.91782E+00 4.91789E+00 4.91799E+00 4.91800E+00
          4.91804E+00 4.91802E+00                                     4.086E+00
 4.00E+03 5.00397E+00 5.06020E+00 5.11110E+00 5.15261E+00 5.18581E+00
          5.23369E+00 5.26024E+00 5.27220E+00 5.27280E+00 5.26587E+00
          5.25637E+00 5.24557E+00 5.23398E+00 5.22245E+00 5.21252E+00
          5.20583E+00 5.20311E+00 5.20493E+00 5.21204E+00 5.22533E+00
          5.24249E+00 5.24990E+00 5.25586E+00 5.25907E+00 5.26124E+00
          5.26155E+00 5.26174E+00 5.26177E+00 5.26179E+00 5.26178E+00
          5.26179E+00 5.26180E+00                                     4.524E+00
 5.00E+03 5.47771E+00 5.54964E+00 5.61280E+00 5.66058E+00 5.69481E+00
          5.73418E+00 5.74367E+00 5.73792E+00 5.72176E+00 5.69955E+00
          5.67637E+00 5.65216E+00 5.62482E+00 5.59449E+00 5.56586E+00
          5.54322E+00 5.52655E+00 5.51393E+00 5.50422E+00 5.50044E+00
          5.50253E+00 5.50296E+00 5.50253E+00 5.50149E+00 5.50036E+00
          5.49992E+00 5.49952E+00 5.49948E+00 5.49944E+00 5.49943E+00
          5.49943E+00 5.49943E+00                                     4.862E+00
 6.00E+03 5.87530E+00 5.95613E+00 6.02610E+00 6.07695E+00 6.11098E+00
          6.14312E+00 6.13912E+00 6.11789E+00 6.08567E+00 6.04789E+00
          6.01070E+00 5.97339E+00 5.93213E+00 5.88653E+00 5.84282E+00
          5.80655E+00 5.77714E+00 5.75114E+00 5.72619E+00 5.70662E+00
          5.69437E+00 5.68860E+00 5.68243E+00 5.67734E+00 5.67295E+00
          5.67177E+00 5.67080E+00 5.67069E+00 5.67059E+00 5.67056E+00
          5.67057E+00 5.67058E+00                                     5.131E+00
 8.00E+03 6.51319E+00 6.60488E+00 6.68209E+00 6.73389E+00 6.76347E+00
          6.77618E+00 6.74421E+00 6.69403E+00 6.63387E+00 6.56992E+00
          6.50902E+00 6.44950E+00 6.38563E+00 6.31610E+00 6.24853E+00
          6.18935E+00 6.13747E+00 6.08807E+00 6.03774E+00 5.99190E+00
          5.95472E+00 5.93786E+00 5.92167E+00 5.90960E+00 5.89841E+00
          5.89568E+00 5.89350E+00 5.89324E+00 5.89302E+00 5.89299E+00
          5.89298E+00 5.89299E+00                                     5.535E+00
 1.00E+04 7.01379E+00 7.10635E+00 7.18235E+00 7.22930E+00 7.25106E+00
          7.24287E+00 7.18575E+00 7.11027E+00 7.02559E+00 6.93853E+00
          6.85636E+00 6.77725E+00 6.69522E+00 6.60842E+00 6.52371E+00
          6.44676E+00 6.37633E+00 6.30765E+00 6.23742E+00 6.17090E+00
          6.11327E+00 6.08727E+00 6.06268E+00 6.04442E+00 6.02666E+00
          6.02239E+00 6.01901E+00 6.01857E+00 6.01825E+00 6.01820E+00
          6.01817E+00 6.01817E+00                                     5.821E+00
 1.50E+04 7.92054E+00 8.00026E+00 8.06014E+00 8.08537E+00 8.08124E+00
          8.01556E+00 7.89824E+00 7.76623E+00 7.62949E+00 7.49432E+00
          7.36742E+00 7.24731E+00 7.12997E+00 7.01284E+00 6.89913E+00
          6.79101E+00 6.68746E+00 6.58523E+00 6.48200E+00 6.38117E+00
          6.28721E+00 6.24358E+00 6.20201E+00 6.17085E+00 6.13983E+00
          6.13231E+00 6.12639E+00 6.12561E+00 6.12504E+00 6.12495E+00
          6.12489E+00 6.12489E+00                                     6.261E+00
 2.00E+04 8.55500E+00 8.60873E+00 8.64195E+00 8.63947E+00 8.60733E+00
          8.48763E+00 8.31910E+00 8.13874E+00 7.95654E+00 7.77860E+00
          7.61152E+00 7.45559E+00 7.30972E+00 7.17144E+00 7.03989E+00
          6.91304E+00 6.78999E+00 6.66833E+00 6.54633E+00 6.42604E+00
          6.30985E+00 6.25353E+00 6.19864E+00 6.15698E+00 6.11708E+00
          6.10727E+00 6.09946E+00 6.09846E+00 6.09772E+00 6.09760E+00
          6.09755E+00 6.09753E+00                                     6.495E+00
 3.00E+04 9.62233E+00 9.51513E+00 9.40441E+00 9.28802E+00 9.16922E+00
          8.93511E+00 8.70253E+00 8.47224E+00 8.24561E+00 8.02455E+00
          7.81026E+00 7.60453E+00 7.40840E+00 7.22129E+00 7.04463E+00
          6.87770E+00 6.72105E+00 6.57478E+00 6.43825E+00 6.30775E+00
          6.18122E+00 6.12131E+00 6.06436E+00 6.01598E+00 5.93119E+00
          5.90104E+00 5.90712E+00 5.91140E+00 5.90808E+00 5.90642E+00
          5.90877E+00 5.90732E+00                                     6.699E+00
 4.00E+04 1.01791E+01 1.00295E+01 9.87647E+00 9.71805E+00 9.55817E+00
          9.24667E+00 8.94225E+00 8.64555E+00 8.35783E+00 8.08102E+00
          7.81620E+00 7.56531E+00 7.32974E+00 7.10850E+00 6.90318E+00
          6.71385E+00 6.54086E+00 6.38451E+00 6.24350E+00 6.11051E+00
          5.97890E+00 5.91445E+00 5.85012E+00 5.79152E+00 5.68693E+00
          5.65094E+00 5.66406E+00 5.67021E+00 5.66541E+00 5.66309E+00
          5.66605E+00 5.66439E+00                                     6.768E+00
 5.00E+04 1.04427E+01 1.03148E+01 1.01767E+01 1.00212E+01 9.85391E+00
          9.50581E+00 9.13921E+00 8.76341E+00 8.39027E+00 8.03485E+00
          7.71258E+00 7.42643E+00 7.17490E+00 6.95221E+00 6.75278E+00
          6.57064E+00 6.40095E+00 6.23549E+00 6.06760E+00 5.90029E+00
          5.73781E+00 5.65792E+00 5.57532E+00 5.50872E+00 5.44976E+00
          5.43528E+00 5.42316E+00 5.42172E+00 5.42057E+00 5.42038E+00
          5.42032E+00 5.42027E+00                                     6.787E+00
 6.00E+04 1.07736E+01 1.06063E+01 1.04296E+01 1.02372E+01 1.00351E+01
          9.62430E+00 9.20376E+00 8.78238E+00 8.37121E+00 7.98356E+00
          7.63400E+00 7.32467E+00 7.05278E+00 6.81149E+00 6.59358E+00
          6.39334E+00 6.20631E+00 6.02669E+00 5.84954E+00 5.67559E+00
          5.50713E+00 5.42544E+00 5.34347E+00 5.27872E+00 5.21715E+00
          5.20200E+00 5.18978E+00 5.18830E+00 5.18706E+00 5.18692E+00
          5.18681E+00 5.18679E+00                                     6.777E+00
 8.00E+04 1.12076E+01 1.10360E+01 1.08397E+01 1.06017E+01 1.03351E+01
          9.77504E+00 9.21547E+00 8.70431E+00 8.24561E+00 7.83484E+00
          7.46845E+00 7.14018E+00 6.83733E+00 6.55195E+00 6.28824E+00
          6.05080E+00 5.83551E+00 5.63576E+00 5.44503E+00 5.25829E+00
          5.07761E+00 4.99467E+00 4.91535E+00 4.85412E+00 4.78928E+00
          4.77375E+00 4.76156E+00 4.75990E+00 4.75871E+00 4.75857E+00
          4.75845E+00 4.75843E+00                                     6.731E+00
 1.00E+05 1.17201E+01 1.13759E+01 1.10335E+01 1.06952E+01 1.03666E+01
          9.75136E+00 9.18267E+00 8.65734E+00 8.17271E+00 7.72628E+00
          7.31646E+00 6.94394E+00 6.60484E+00 6.29451E+00 6.00907E+00
          5.74771E+00 5.50960E+00 5.29347E+00 5.09624E+00 4.90466E+00
          4.70864E+00 4.61400E+00 4.53118E+00 4.47612E+00 4.41278E+00
          4.39429E+00 4.38261E+00 4.38164E+00 4.38016E+00 4.37988E+00
          4.37988E+00 4.37983E+00                                     6.668E+00
 1.50E+05 1.21070E+01 1.17739E+01 1.14201E+01 1.10323E+01 1.06256E+01
          9.81998E+00 9.06565E+00 8.40851E+00 7.84052E+00 7.34676E+00
          6.91228E+00 6.52091E+00 6.15229E+00 5.79652E+00 5.46315E+00
          5.16020E+00 4.88649E+00 4.63337E+00 4.39557E+00 4.17239E+00
          3.96512E+00 3.86891E+00 3.77827E+00 3.71136E+00 3.64633E+00
          3.63102E+00 3.61901E+00 3.61743E+00 3.61628E+00 3.61613E+00
          3.61602E+00 3.61599E+00                                     6.532E+00
 2.00E+05 1.25580E+01 1.20316E+01 1.15175E+01 1.10261E+01 1.05607E+01
          9.70648E+00 8.94103E+00 8.25465E+00 7.63885E+00 7.08752E+00
          6.59703E+00 6.15935E+00 5.76518E+00 5.40449E+00 5.06562E+00
          4.74231E+00 4.43855E+00 4.15751E+00 3.90015E+00 3.66119E+00
          3.43754E+00 3.33239E+00 3.23051E+00 3.15470E+00 3.09146E+00
          3.07665E+00 3.06451E+00 3.06312E+00 3.06198E+00 3.06179E+00
          3.06171E+00 3.06164E+00                                     6.429E+00
 3.00E+05 1.30303E+01 1.23568E+01 1.17110E+01 1.11148E+01 1.05650E+01
          9.57644E+00 8.71523E+00 7.96244E+00 7.30333E+00 6.72001E+00
          6.19852E+00 5.72957E+00 5.30393E+00 4.91263E+00 4.54574E+00
          4.19746E+00 3.86966E+00 3.56586E+00 3.28413E+00 3.01962E+00
          2.77099E+00 2.65440E+00 2.54434E+00 2.46500E+00 2.39875E+00
          2.38353E+00 2.37129E+00 2.36989E+00 2.36874E+00 2.36856E+00
          2.36845E+00 2.36841E+00                                     6.361E+00
 4.00E+05 1.33544E+01 1.25827E+01 1.18511E+01 1.11901E+01 1.05901E+01
          9.51912E+00 8.60028E+00 7.80657E+00 7.11980E+00 6.51639E+00
          5.97541E+00 5.48642E+00 5.04117E+00 4.63142E+00 4.24829E+00
          3.88621E+00 3.54562E+00 3.22835E+00 2.93372E+00 2.65472E+00
          2.39022E+00 2.26624E+00 2.15185E+00 2.07091E+00 1.99973E+00
          1.98349E+00 1.97091E+00 1.96944E+00 1.96820E+00 1.96805E+00
          1.96789E+00 1.96788E+00                                     6.402E+00
 5.00E+05 1.36083E+01 1.27675E+01 1.19770E+01 1.12738E+01 1.06418E+01
          9.51505E+00 8.55722E+00 7.73568E+00 7.02832E+00 6.40866E+00
          5.85238E+00 5.34799E+00 4.88789E+00 4.46450E+00 4.06955E+00
          3.69769E+00 3.34856E+00 3.02283E+00 2.72025E+00 2.43302E+00
          2.15789E+00 2.02765E+00 1.90701E+00 1.82107E+00 1.74545E+00
          1.72831E+00 1.71505E+00 1.71351E+00 1.71217E+00 1.71201E+00
          1.71187E+00 1.71187E+00                                     6.499E+00
 6.00E+05 1.38217E+01 1.29299E+01 1.20967E+01 1.13647E+01 1.07114E+01
          9.54463E+00 8.55822E+00 7.71684E+00 6.99368E+00 6.36044E+00
          5.79141E+00 5.27473E+00 4.80295E+00 4.36887E+00 3.96458E+00
          3.58484E+00 3.22883E+00 2.89656E+00 2.58741E+00 2.29410E+00
          2.01042E+00 1.87460E+00 1.74738E+00 1.65553E+00 1.57544E+00
          1.55728E+00 1.54312E+00 1.54146E+00 1.54004E+00 1.53987E+00
          1.53973E+00 1.53973E+00                                     6.630E+00
 8.00E+05 1.41666E+01 1.32067E+01 1.23178E+01 1.15505E+01 1.08727E+01
          9.65583E+00 8.63185E+00 7.76443E+00 7.01940E+00 6.36603E+00
          5.77816E+00 5.24395E+00 4.75590E+00 4.30671E+00 3.88843E+00
          3.49572E+00 3.12748E+00 2.78329E+00 2.46135E+00 2.15511E+00
          1.85559E+00 1.70975E+00 1.57065E+00 1.46778E+00 1.37746E+00
          1.35661E+00 1.34014E+00 1.33819E+00 1.33655E+00 1.33634E+00
          1.33619E+00 1.33613E+00                                     6.938E+00
 1.00E+06 1.44448E+01 1.34427E+01 1.25205E+01 1.17342E+01 1.10442E+01
          9.80037E+00 8.75570E+00 7.87214E+00 7.11272E+00 6.44567E+00
          5.84513E+00 5.29941E+00 4.80073E+00 4.34122E+00 3.91233E+00
          3.50837E+00 3.12837E+00 2.77197E+00 2.43675E+00 2.11512E+00
          1.79921E+00 1.64356E+00 1.49322E+00 1.37981E+00 1.27761E+00
          1.25343E+00 1.23422E+00 1.23196E+00 1.23006E+00 1.22980E+00
          1.22962E+00 1.22949E+00                                     7.273E+00
 1.50E+06 1.49604E+01 1.38990E+01 1.29320E+01 1.21246E+01 1.14248E+01
          1.01562E+01 9.09808E+00 8.19731E+00 7.42003E+00 6.73485E+00
          6.11706E+00 5.55480E+00 5.03966E+00 4.56285E+00 4.11444E+00
          3.68804E+00 3.28307E+00 2.89964E+00 2.53424E+00 2.17521E+00
          1.81516E+00 1.63363E+00 1.45221E+00 1.30911E+00 1.17448E+00
          1.14154E+00 1.11507E+00 1.11193E+00 1.10933E+00 1.10900E+00
          1.10868E+00 1.10866E+00                                     8.062E+00
 2.00E+06 1.53241E+01 1.42286E+01 1.32380E+01 1.24242E+01 1.17266E+01
          1.04599E+01 9.40825E+00 8.50761E+00 7.72724E+00 7.03674E+00
          6.41190E+00 5.84100E+00 5.31565E+00 4.82692E+00 4.36463E+00
          3.92213E+00 3.49885E+00 3.09490E+00 2.70550E+00 2.31486E+00
          1.91043E+00 1.70184E+00 1.48561E+00 1.30871E+00 1.14024E+00
          1.09885E+00 1.06565E+00 1.06162E+00 1.05819E+00 1.05775E+00
          1.05751E+00 1.05761E+00                                     8.742E+00
 3.00E+06 1.57893E+01 1.46513E+01 1.36350E+01 1.28235E+01 1.21443E+01
          1.09160E+01 9.89465E+00 9.01621E+00 8.24951E+00 7.56350E+00
          6.93294E+00 6.34870E+00 5.80637E+00 5.30036E+00 4.82315E+00
          4.36816E+00 3.93029E+00 3.50231E+00 3.07419E+00 2.62989E+00
          2.14833E+00 1.88652E+00 1.60638E+00 1.36501E+00 1.11959E+00
          1.06152E+00 1.01969E+00 1.01452E+00 1.00852E+00 1.00771E+00
          1.00882E+00 1.00784E+00                                     9.809E+00
 4.00E+06 1.60490E+01 1.48922E+01 1.38698E+01 1.30727E+01 1.24191E+01
          1.12372E+01 1.02481E+01 9.39393E+00 8.64412E+00 7.96804E+00
          7.34041E+00 6.75381E+00 6.20623E+00 5.69369E+00 5.20922E+00
          4.74623E+00 4.29886E+00 3.85835E+00 3.41130E+00 2.93393E+00
          2.39121E+00 2.08103E+00 1.73755E+00 1.43537E+00 1.12145E+00
          1.04619E+00 9.94966E-01 9.88781E-01 9.80740E-01 9.79705E-01
          9.82282E-01 9.79639E-01                                     1.060E+01
 5.00E+06 1.61619E+01 1.50181E+01 1.40150E+01 1.32473E+01 1.26249E+01
          1.14849E+01 1.05193E+01 9.68104E+00 8.94267E+00 8.27564E+00
          7.65580E+00 7.07499E+00 6.52959E+00 6.01580E+00 5.52912E+00
          5.06431E+00 4.61444E+00 4.16869E+00 3.70936E+00 3.20384E+00
          2.60998E+00 2.26280E+00 1.86685E+00 1.51295E+00 1.13366E+00
          1.03946E+00 9.77988E-01 9.71068E-01 9.61574E-01 9.60382E-01
          9.64295E-01 9.59807E-01                                     1.122E+01
 6.00E+06 1.62383E+01 1.50963E+01 1.41033E+01 1.33591E+01 1.27643E+01
          1.16614E+01 1.07226E+01 9.90442E+00 9.18131E+00 8.52567E+00
          7.91416E+00 7.33908E+00 6.79740E+00 6.28585E+00 5.80054E+00
          5.33644E+00 4.88604E+00 4.43723E+00 3.96983E+00 3.44588E+00
          2.81367E+00 2.43425E+00 1.99162E+00 1.58945E+00 1.15091E+00
          1.03918E+00 9.65689E-01 9.57578E-01 9.47112E-01 9.45917E-01
          9.50387E-01 9.44722E-01                                     1.171E+01
 8.00E+06 1.61068E+01 1.50625E+01 1.41686E+01 1.35230E+01 1.30129E+01
          1.20072E+01 1.11100E+01 1.02961E+01 9.55821E+00 8.88673E+00
          8.27461E+00 7.71429E+00 7.19773E+00 6.71537E+00 6.25471E+00
          5.80471E+00 5.35785E+00 4.90218E+00 4.41565E+00 3.85383E+00
          3.15612E+00 2.73054E+00 2.22923E+00 1.75976E+00 1.20175E+00
          1.04234E+00 9.48511E-01 9.40242E-01 9.27273E-01 9.25404E-01
          9.31720E-01 9.23305E-01                                     1.249E+01
 1.00E+07 1.61174E+01 1.50827E+01 1.42082E+01 1.35972E+01 1.31250E+01
          1.21707E+01 1.13148E+01 1.05338E+01 9.82204E+00 9.17134E+00
          8.57572E+00 8.02868E+00 7.52327E+00 7.05098E+00 6.60058E+00
