 PENELOPE (v. 2014)  Material data file ...............
 Material: Stainless Steel                                               
 Mass density = 8.06000000E+00 g/cm**3
 Number of elements in the molecule =  6
   atomic number =  6,  atoms/molecule = 6.53041360E-03
   atomic number = 14,  atoms/molecule = 1.95491556E-02
   atomic number = 24,  atoms/molecule = 2.71532879E-01
   atomic number = 25,  atoms/molecule = 1.42773304E-02
   atomic number = 26,  atoms/molecule = 1.00000000E+00
   atomic number = 28,  atoms/molecule = 1.20281339E-01
 Mean excitation energy = 2.81194346E+02 eV
 Number of oscillators = 31 (E/P inelastic model)
   1  2.86434224E+00  0.00000000E+00  1.56333768E+01   0  30
   2  8.15886719E+00  9.04428846E+00  2.63041109E+01   0  30
   3  1.30608272E-02  1.65900000E+01  4.28626025E+01   6  30
   4  7.71486126E+00  5.72067106E+01  1.47742657E+02   0  30
   5  4.81125357E-01  7.30000000E+01  1.88640201E+02  28   7
   6  2.40562678E-01  7.50000000E+01  1.93769197E+02  28   6
   7  5.43065759E-01  8.00000000E+01  2.06724206E+02  24   5
   8  2.85546608E-02  8.90000000E+01  2.29901074E+02  25   5
   9  2.00000000E+00  9.80000000E+01  2.53370216E+02  26   5
  10  3.90983112E-02  1.04000000E+02  2.68648458E+02  14   3
  11  7.81966224E-02  1.04000000E+02  2.68652597E+02  14   4
  12  2.40562678E-01  1.17000000E+02  3.02247496E+02  28   5
  13  3.90983112E-02  1.54000000E+02  3.97803036E+02  14   2
  14  1.30608272E-02  2.88000000E+02  7.43938611E+02   6   1
  15  1.08613152E+00  5.80000000E+02  1.49822932E+03  24   4
  16  5.43065759E-01  5.89000000E+02  1.52146692E+03  24   3
  17  5.71093216E-02  6.45000000E+02  1.66611237E+03  25   4
  18  2.85546608E-02  6.56000000E+02  1.69452618E+03  25   3
  19  5.43065759E-01  7.02000000E+02  1.81335767E+03  24   2
  20  4.00000000E+00  7.13000000E+02  1.84182522E+03  26   4
  21  2.00000000E+00  7.26000000E+02  1.87537432E+03  26   3
  22  2.85546608E-02  7.55000000E+02  1.95025484E+03  25   2
  23  2.00000000E+00  8.51000000E+02  2.19825967E+03  26   2
  24  4.81125357E-01  8.60000000E+02  2.22148802E+03  28   4
  25  2.40562678E-01  8.77000000E+02  2.26539790E+03  28   3
  26  2.40562678E-01  1.01500000E+03  2.62186783E+03  28   2
  27  3.90983112E-02  1.84400000E+03  4.76327064E+03  14   1
  28  5.43065759E-01  5.99500000E+03  1.54857961E+04  24   1
  29  2.85546608E-02  6.54400000E+03  1.69039271E+04  25   1
  30  2.00000000E+00  7.11700000E+03  1.83840571E+04  26   1
  31  2.40562678E-01  8.33800000E+03  2.15380419E+04  28   1
 Number of shells = 31 (Compton IA model)
   1  2.86434224E+00  0.00000000E+00  8.50459324E-01   0  30
   2  8.15886719E+00  9.04428846E+00  2.12077485E-01   0  30
   3  1.30608272E-02  1.65900000E+01  8.03154000E-01   6  30
   4  7.71486126E+00  5.72067106E+01  2.28528746E-01   0  30
   5  4.81125357E-01  7.30000000E+01  2.02278000E-01  28   7
   6  2.40562678E-01  7.50000000E+01  1.99846000E-01  28   6
   7  5.43065759E-01  8.00000000E+01  3.94999000E-01  24   5
   8  2.85546608E-02  8.90000000E+01  3.69361000E-01  25   5
   9  2.00000000E+00  9.80000000E+01  3.51458000E-01  26   5
  10  7.81966224E-02  1.04000000E+02  1.49030000E-01  14   4
  11  3.90983112E-02  1.04000000E+02  1.48493000E-01  14   3
  12  2.40562678E-01  1.17000000E+02  3.20679000E-01  28   5
  13  3.90983112E-02  1.54000000E+02  2.74105000E-01  14   2
  14  1.30608272E-02  2.88000000E+02  1.53080000E-01   6   1
  15  1.08613152E+00  5.80000000E+02  7.15592000E-02  24   4
  16  5.43065759E-01  5.89000000E+02  7.08800000E-02  24   3
  17  5.71093216E-02  6.45000000E+02  6.80680000E-02  25   4
  18  2.85546608E-02  6.56000000E+02  6.73678000E-02  25   3
  19  5.43065759E-01  7.02000000E+02  1.38504000E-01  24   2
  20  4.00000000E+00  7.13000000E+02  6.49062000E-02  26   4
  21  2.00000000E+00  7.26000000E+02  6.41844000E-02  26   3
  22  2.85546608E-02  7.55000000E+02  1.31920000E-01  25   2
  23  2.00000000E+00  8.51000000E+02  1.25935000E-01  26   2
  24  4.81125357E-01  8.60000000E+02  5.93958000E-02  28   4
  25  2.40562678E-01  8.77000000E+02  5.86296000E-02  28   3
  26  2.40562678E-01  1.01500000E+03  1.15436000E-01  28   2
  27  3.90983112E-02  1.84400000E+03  6.32596000E-02  14   1
  28  5.43065759E-01  5.99500000E+03  3.60328000E-02  24   1
  29  2.85546608E-02  6.54400000E+03  3.45189000E-02  25   1
  30  2.00000000E+00  7.11700000E+03  3.31215000E-02  26   1
  31  2.40562678E-01  8.33800000E+03  3.06276000E-02  28   1
 *** RELAX:  Z =  6,  no. of shells =  3,  no. of transitions =    8
   1 1s1/2 2  2.88000E+02  6.14394E-02  1.53080E-01
   2 2s1/2 2  1.65900E+01  0.00000E+00  8.03154E-01
   3 2p1/2 2  1.12600E+01  0.00000E+00  4.88373E-01
   1  3  0  5.61488E-04  2.77000E+02
   1  4  0  1.12060E-03  2.77000E+02
   1  2  2  4.13609E-01  2.55890E+02
   1  2  3  1.36190E-01  2.64460E+02
   1  2  4  2.71099E-01  2.64470E+02
   1  3  3  4.20748E-03  2.73030E+02
   1  3  4  1.10012E-01  2.73040E+02
   1  4  4  6.32008E-02  2.73050E+02
 *** RELAX:  Z = 14,  no. of shells =  6,  no. of transitions =   51
   1 1s1/2 2  1.84400E+03  4.30000E-01  6.32596E-02
   2 2s1/2 2  1.54000E+02  9.00000E-01  2.74105E-01
   3 2p1/2 2  1.04000E+02  5.00000E-02  1.48493E-01
   4 2p3/2 4  1.04000E+02  5.00000E-02  1.49030E-01
   5 3s1/2 2  1.34600E+01  0.00000E+00  1.03443E+00
   6 3p1/2 2  8.15100E+00  0.00000E+00  7.43235E-01
   1  3  0  1.59791E-02  1.73939E+03
   1  4  0  3.17052E-02  1.73998E+03
   1  6  0  2.72402E-04  1.83596E+03
   1  7  0  5.40444E-04  1.83596E+03
   1  2  2  7.47954E-02  1.52540E+03
   1  2  3  8.01214E-02  1.56828E+03
   1  2  4  1.56131E-01  1.56897E+03
   1  2  5  1.41124E-02  1.66332E+03
   1  2  6  1.95584E-03  1.67040E+03
   1  2  7  3.81585E-03  1.67043E+03
   1  3  3  1.39905E-02  1.61116E+03
   1  3  4  3.56408E-01  1.61185E+03
   1  3  5  6.76231E-03  1.70620E+03
   1  3  6  6.64732E-04  1.71328E+03
   1  3  7  7.97675E-03  1.71331E+03
   1  4  4  2.03104E-01  1.61254E+03
   1  4  5  1.31982E-02  1.70689E+03
   1  4  6  7.96407E-03  1.71397E+03
   1  4  7  9.16547E-03  1.71400E+03
   1  5  5  6.64748E-04  1.80124E+03
   1  5  6  1.66185E-04  1.80832E+03
   1  5  7  3.25975E-04  1.80835E+03
   1  6  6  6.39199E-06  1.81540E+03
   1  6  7  1.08669E-04  1.81543E+03
   1  7  7  6.39185E-05  1.81546E+03
   2  6  0  5.83271E-06  1.55240E+02
   2  7  0  1.07340E-05  1.45030E+02
   2  5  5  1.03158E-02  1.24290E+02
   2  5  6  5.00684E-03  1.31370E+02
   2  5  7  9.95440E-03  1.31400E+02
   2  6  6  3.23120E-05  1.38450E+02
   2  7  7  6.62381E-05  1.38510E+02
   3  5  0  4.72000E-05  9.50400E+01
   3  7  0  1.82830E-09  1.02150E+02
   3  5  5  6.76285E-02  8.14100E+01
   3  5  6  5.54847E-01  8.84900E+01
   3  5  7  3.51351E-02  8.85200E+01
   3  6  6  7.24466E-02  9.55700E+01
   3  6  7  2.62434E-01  9.56000E+01
   3  7  7  7.46220E-03  9.56300E+01
   4  5  0  4.42068E-05  9.43500E+01
   4  6  0  8.54246E-10  1.00630E+02
   4  7  0  8.43116E-10  1.01460E+02
   4  5  5  6.56816E-02  8.07200E+01
   4  5  6  1.73500E-02  8.78000E+01
   4  5  7  5.73636E-01  8.78300E+01
   4  6  6  1.08438E-03  9.48800E+01
   4  6  7  1.37565E-01  9.49100E+01
   4  7  7  2.04639E-01  9.49400E+01
   2 30  0  3.26940E-04  4.33570E+01
   2 30 30  9.74281E-01  3.11037E+01
 *** RELAX:  Z = 24,  no. of shells = 10,  no. of transitions =  142
   1 1s1/2 2  5.99500E+03  1.02000E+00  3.60328E-02
   2 2s1/2 2  7.02000E+02  5.20000E+00  1.38504E-01
   3 2p1/2 2  5.89000E+02  7.60000E-01  7.08800E-02
   4 2p3/2 4  5.80000E+02  3.20000E-01  7.15592E-02
   5 3s1/2 2  8.00000E+01  2.30000E+00  3.94999E-01
   6 3p1/2 2  4.90000E+01  1.20000E+00  2.50219E-01
   7 3p3/2 4  4.80000E+01  1.20000E+00  2.52441E-01
   8 3d3/2 4  8.25000E+00  0.00000E+00  2.62497E-01
   9 3d5/2 1  8.25000E+00  0.00000E+00  2.63959E-01
  10 4s1/2 1  7.50800E+00  0.00000E+00  1.82383E+00
   1  3  0  8.25759E-02  5.40554E+03
   1  4  0  1.62090E-01  5.41480E+03
   1  6  0  9.49389E-03  5.94682E+03
   1  7  0  1.87010E-02  5.94682E+03
   1  8  0  2.52540E-06  5.98697E+03
   1  9  0  3.69550E-06  5.98697E+03
   1  2  2  4.89637E-02  4.58292E+03
   1  2  3  5.42769E-02  4.68052E+03
   1  2  4  1.00496E-01  4.68945E+03
   1  2  5  1.27805E-02  5.19107E+03
   1  2  6  6.65910E-03  5.21901E+03
   1  2  7  1.22647E-02  5.22006E+03
   1  2  8  1.31005E-04  5.26380E+03
   1  2  9  1.83964E-04  5.26389E+03
   1  2 10  5.24035E-04  5.26430E+03
   1  3  3  9.81425E-03  4.77812E+03
   1  3  4  2.37473E-01  4.78705E+03
   1  3  5  6.07386E-03  5.28867E+03
   1  3  6  2.27732E-03  5.31661E+03
   1  3  7  2.52704E-02  5.31766E+03
   1  3  8  1.83966E-04  5.36140E+03
   1  3  9  6.91293E-04  5.36149E+03
   1  3 10  2.45286E-04  5.36190E+03
   1  4  4  1.33078E-01  4.79598E+03
   1  4  5  1.12890E-02  5.29760E+03
   1  4  6  2.52740E-02  5.32554E+03
   1  4  7  2.87383E-02  5.32659E+03
   1  4  8  8.58576E-04  5.37033E+03
   1  4  9  8.47392E-04  5.37042E+03
   1  4 10  4.54356E-04  5.37083E+03
   1  5  5  8.75710E-04  5.79922E+03
   1  5  6  7.92885E-04  5.82716E+03
   1  5  7  1.46749E-03  5.82821E+03
   1  5  8  1.47928E-05  5.87195E+03
   1  5  9  2.07097E-05  5.87204E+03
   1  5 10  7.10061E-05  5.87245E+03
   1  6  6  1.35594E-04  5.85510E+03
   1  6  7  2.86524E-03  5.85615E+03
   1  6  8  1.76859E-05  5.89989E+03
   1  6  9  6.48504E-05  5.89998E+03
   1  6 10  3.24257E-05  5.90039E+03
   1  7  7  1.69746E-03  5.85720E+03
   1  7  8  8.22897E-05  5.90094E+03
   1  7  9  8.22897E-05  5.90103E+03
   1  7 10  6.09548E-05  5.90144E+03
   1  8  9  2.78750E-06  5.94477E+03
   2  3  0  4.18737E-05  9.76000E+01
   2  4  0  1.48369E-04  1.06530E+02
   2  6  0  4.33407E-04  6.53900E+02
   2  7  0  6.32756E-04  6.53900E+02
   2  8  0  9.01435E-07  6.93470E+02
   2  9  0  1.28349E-06  6.97480E+02
   2  3  8  3.48094E-02  9.11400E+01
   2  3  9  5.71581E-02  9.12300E+01
   2  3 10  2.94252E-03  9.16400E+01
   2  4  6  6.41046E-02  5.52800E+01
   2  4  7  1.46970E-01  5.63300E+01
   2  4  8  8.02910E-02  1.00070E+02
   2  4  9  1.13541E-01  1.00160E+02
   2  4 10  5.52176E-03  1.00570E+02
   2  5  5  1.58591E-02  5.28960E+02
   2  5  6  2.81218E-02  5.56900E+02
   2  5  7  5.52047E-02  5.57950E+02
   2  5  8  1.26572E-02  6.01690E+02
   2  5  9  1.87070E-02  6.01780E+02
   2  5 10  1.15939E-03  6.02190E+02
   2  6  6  5.42863E-04  5.84840E+02
   2  6  7  6.59238E-04  5.85890E+02
   2  6  8  2.01268E-04  6.29630E+02
   2  6  9  3.63756E-03  6.29720E+02
   2  6 10  9.91538E-04  6.30130E+02
   2  7  7  1.53759E-03  5.86940E+02
   2  7  8  4.03198E-03  6.30680E+02
   2  7  9  2.94930E-03  6.30770E+02
   2  7 10  1.98307E-03  6.31180E+02
   2  8  8  1.01624E-04  6.74420E+02
   2  8  9  5.59607E-03  6.74510E+02
   2  8 10  3.02273E-04  6.74920E+02
   2  9  9  1.98500E-03  6.74600E+02
   2  9 10  5.77984E-04  6.75010E+02
   3  5  0  3.06272E-03  5.10220E+02
   3  7  0  5.01634E-06  5.43000E+02
   3  8  0  5.24554E-04  5.82900E+02
   3 10  0  5.75784E-05  5.83780E+02
   3  5  5  7.19812E-03  4.31360E+02
   3  5  6  1.29803E-01  4.59300E+02
   3  5  7  1.01967E-02  4.60350E+02
   3  5  8  3.76468E-03  5.04090E+02
   3  5  9  5.66444E-03  5.04180E+02
   3  5 10  5.14137E-04  5.04590E+02
   3  6  6  1.12344E-01  4.87240E+02
   3  6  7  3.91850E-01  4.88290E+02
   3  6  8  5.95615E-02  5.32030E+02
   3  6  9  1.16969E-01  5.32120E+02
   3  6 10  5.51139E-03  5.32530E+02
   3  7  7  1.04751E-02  4.89340E+02
   3  7  8  6.51357E-02  5.33080E+02
   3  7  9  1.02318E-02  5.33170E+02
   3  7 10  3.66011E-04  5.33580E+02
   3  8  8  1.11616E-02  5.76820E+02
   3  8  9  5.12258E-02  5.76910E+02
   3  8 10  9.00498E-05  5.77320E+02
   3  9  9  4.06976E-03  5.77000E+02
   3  9 10  2.17875E-04  5.77410E+02
   4  5  0  2.89130E-03  5.00330E+02
   4  6  0  2.43310E-06  5.26900E+02
   4  7  0  2.37970E-06  5.33200E+02
   4  8  0  4.10181E-05  5.72900E+02
   4  9  0  4.70291E-04  5.72900E+02
   4 10  0  5.43441E-05  5.74850E+02
   4  5  5  6.92712E-03  4.22430E+02
   4  5  6  4.63469E-03  4.50370E+02
   4  5  7  1.28814E-01  4.51420E+02
   4  5  8  3.79888E-03  4.95160E+02
   4  5  9  5.66920E-03  4.95250E+02
   4  5 10  4.96566E-04  4.95660E+02
   4  6  6  1.84285E-03  4.78310E+02
   4  6  7  1.99140E-01  4.79360E+02
   4  6  8  3.45295E-03  5.23100E+02
   4  6  9  3.43324E-02  5.23190E+02
   4  6 10  1.72218E-04  5.23600E+02
   4  7  7  2.88700E-01  4.80410E+02
   4  7  8  8.33075E-02  5.24150E+02
   4  7  9  1.23152E-01  5.24240E+02
   4  7 10  5.36074E-03  5.24650E+02
   4  8  8  2.99602E-03  5.67890E+02
   4  8  9  6.13951E-02  5.67980E+02
   4  8 10  1.48972E-04  5.68390E+02
   4  9  9  4.19708E-02  5.68070E+02
   4  9 10  2.26225E-04  5.68480E+02
   5  8  8  4.91707E-04  6.62700E+01
   5  8  9  2.26380E-02  6.63600E+01
   5  8 10  1.14514E-02  6.67700E+01
   5  9  9  8.08526E-03  6.64500E+01
   5  9 10  2.56138E-02  6.68600E+01
   2 30 30  3.36596E-01  3.25767E+01
   5 30  0  7.96236E-06  2.86676E+01
   5 30 30  9.31712E-01  2.22847E+01
   6 30  0  8.45349E-07  4.48256E+01
   6 30 30  9.99999E-01  3.84358E+01
   7 30  0  7.14377E-07  4.38327E+01
   7 30 30  9.99999E-01  3.74267E+01
 *** RELAX:  Z = 25,  no. of shells = 10,  no. of transitions =  147
   1 1s1/2 2  6.54400E+03  1.11000E+00  3.45189E-02
   2 2s1/2 2  7.55000E+02  6.20000E+00  1.31920E-01
   3 2p1/2 2  6.56000E+02  9.70000E-01  6.73678E-02
   4 2p3/2 4  6.45000E+02  3.60000E-01  6.80680E-02
   5 3s1/2 2  8.90000E+01  2.40000E+00  3.69361E-01
   6 3p1/2 2  5.50000E+01  1.20000E+00  2.32855E-01
   7 3p3/2 4  5.30000E+01  1.20000E+00  2.35040E-01
   8 3d3/2 4  9.00000E+00  0.00000E+00  2.15446E-01
   9 3d5/2 1  9.00000E+00  0.00000E+00  2.16401E-01
  10 4s1/2 2  7.43400E+00  0.00000E+00  1.57584E+00
   1  3  0  9.17726E-02  5.88769E+03
   1  4  0  1.79949E-01  5.89880E+03
   1  6  0  1.09360E-02  6.49059E+03
   1  7  0  2.15229E-02  6.49059E+03
   1  8  0  3.85518E-06  6.53536E+03
   1  9  0  5.64148E-06  6.53536E+03
   1  2  2  4.67138E-02  4.97796E+03
   1  2  3  5.17916E-02  5.08146E+03
   1  2  4  9.52207E-02  5.09221E+03
   1  2  5  1.24821E-02  5.65185E+03
   1  2  6  6.59506E-03  5.68234E+03
   1  2  7  1.20614E-02  5.68365E+03
   1  2  8  1.52466E-04  5.73258E+03
   1  2  9  2.11912E-04  5.73271E+03
   1  2 10  1.14999E-03  5.73718E+03
   1  3  3  9.33686E-03  5.18496E+03
   1  3  4  2.24948E-01  5.19571E+03
   1  3  5  5.91526E-03  5.75535E+03
   1  3  6  2.24573E-03  5.78584E+03
   1  3  7  2.47828E-02  5.78715E+03
   1  3  8  2.11909E-04  5.83608E+03
   1  3  9  7.93352E-04  5.83621E+03
   1  3 10  5.34934E-04  5.84068E+03
   1  4  4  1.25736E-01  5.20646E+03
   1  4  5  1.09189E-02  5.76610E+03
   1  4  6  2.47718E-02  5.79659E+03
   1  4  7  2.81289E-02  5.79790E+03
   1  4  8  9.84510E-04  5.84683E+03
   1  4  9  9.71635E-04  5.84696E+03
   1  4 10  9.87080E-04  5.85143E+03
   1  5  5  8.24386E-04  6.32574E+03
   1  5  6  7.57183E-04  6.35623E+03
   1  5  7  1.38769E-03  6.35754E+03
   1  5  8  1.55054E-05  6.40647E+03
   1  5  9  2.32585E-05  6.40660E+03
   1  5 10  1.52465E-04  6.41107E+03
   1  6  6  1.30400E-04  6.38672E+03
   1  6  7  2.77500E-03  6.38803E+03
   1  6  8  1.82564E-05  6.43696E+03
   1  6  9  7.30232E-05  6.43709E+03
   1  6 10  6.78099E-05  6.44156E+03
   1  7  7  1.61665E-03  6.38934E+03
   1  7  8  9.29085E-05  6.43827E+03
   1  7  9  9.02568E-05  6.43840E+03
   1  7 10  1.30078E-04  6.44287E+03
   1  8  9  2.58429E-06  6.48733E+03
   1  8 10  2.58429E-06  6.49180E+03
   1  9 10  2.58419E-06  6.49193E+03
   2  3  0  3.44712E-05  1.03500E+02
   2  4  0  1.28601E-04  1.14250E+02
   2  6  0  4.87964E-04  7.21200E+02
   2  7  0  7.08545E-04  7.21200E+02
   2  8  0  1.26141E-06  7.68340E+02
   2  9  0  1.76201E-06  7.69360E+02
   2  3  8  3.86253E-02  9.16500E+01
   2  3  9  6.34333E-02  9.17800E+01
   2  3 10  6.97311E-03  9.62500E+01
   2  4  6  6.79573E-02  5.21600E+01
   2  4  7  1.55173E-01  5.34700E+01
   2  4  8  9.02735E-02  1.02400E+02
   2  4  9  1.27740E-01  1.02530E+02
   2  4 10  1.29083E-02  1.07000E+02
   2  5  5  1.51766E-02  5.81310E+02
   2  5  6  2.72907E-02  6.11800E+02
   2  5  7  5.35293E-02  6.13110E+02
   2  5  8  1.37094E-02  6.62040E+02
   2  5  9  2.02584E-02  6.62170E+02
   2  5 10  2.49655E-03  6.66640E+02
   2  6  6  4.48180E-04  6.42290E+02
   2  6  7  6.36606E-04  6.43600E+02
   2  6  8  1.95994E-04  6.92530E+02
   2  6  9  3.62961E-03  6.92660E+02
   2  6 10  1.91586E-03  6.97130E+02
   2  7  7  1.25022E-03  6.44910E+02
   2  7  8  3.74630E-03  6.93840E+02
   2  7  9  2.72895E-03  6.93970E+02
   2  7 10  3.60061E-03  6.98440E+02
   2  8  8  1.68704E-04  7.42770E+02
   2  8  9  8.95871E-03  7.42900E+02
   2  8 10  9.67657E-04  7.47370E+02
   2  9  9  2.40642E-03  7.43030E+02
   2  9 10  1.39661E-03  7.47500E+02
   3  5  0  3.57611E-03  5.67420E+02
   3  7  0  7.00762E-06  6.06500E+02
   3  8  0  8.77713E-04  6.48800E+02
   3 10  0  6.97162E-05  6.55720E+02
   3  5  5  6.61693E-03  4.77810E+02
   3  5  6  1.20709E-01  5.08300E+02
   3  5  7  9.64520E-03  5.09610E+02
   3  5  8  3.57326E-03  5.58540E+02
   3  5  9  5.88520E-03  5.58670E+02
   3  5 10  1.05091E-03  5.63140E+02
   3  6  6  1.02396E-01  5.38790E+02
   3  6  7  3.56396E-01  5.40100E+02
   3  6  8  6.06602E-02  5.89030E+02
   3  6  9  1.18320E-01  5.89160E+02
   3  6 10  1.11894E-02  5.93630E+02
   3  7  7  9.88714E-03  5.41410E+02
   3  7  8  6.98718E-02  5.90340E+02
   3  7  9  1.07431E-02  5.90470E+02
   3  7 10  7.86291E-04  5.94940E+02
   3  8  8  1.83293E-02  6.39270E+02
   3  8  9  8.38539E-02  6.39400E+02
   3  8 10  2.77108E-04  6.43870E+02
   3  9  9  4.76450E-03  6.39530E+02
   3  9 10  5.13814E-04  6.44000E+02
   4  5  0  3.35628E-03  5.56220E+02
   4  6  0  3.41908E-06  5.87300E+02
   4  7  0  3.33848E-06  5.94600E+02
   4  8  0  7.06575E-05  6.37440E+02
   4  9  0  7.98014E-04  6.37440E+02
   4 10  0  6.55745E-05  6.44970E+02
   4  5  5  6.20886E-03  4.67060E+02
   4  5  6  4.22301E-03  4.97550E+02
   4  5  7  1.16349E-01  4.98860E+02
   4  5  8  3.79266E-03  5.47790E+02
   4  5  9  5.40607E-03  5.47920E+02
   4  5 10  9.89484E-04  5.52390E+02
   4  6  6  1.62236E-03  5.28040E+02
   4  6  7  1.74618E-01  5.29350E+02
   4  6  8  3.48065E-03  5.78280E+02
   4  6  9  3.40844E-02  5.78410E+02
   4  6 10  3.43045E-04  5.82880E+02
   4  7  7  2.59646E-01  5.30660E+02
   4  7  8  8.35044E-02  5.79590E+02
   4  7  9  1.24363E-01  5.79720E+02
   4  7 10  1.07536E-02  5.84190E+02
   4  8  8  4.87347E-03  6.28520E+02
   4  8  9  9.92986E-02  6.28650E+02
   4  8 10  4.77198E-04  6.33120E+02
   4  9  9  6.10517E-02  6.28780E+02
   4  9 10  6.17804E-04  6.33250E+02
   5  8  8  6.32082E-04  6.88800E+01
   5  8  9  1.85482E-02  6.90100E+01
   5  8 10  2.34369E-02  7.34800E+01
   5  9  9  4.80240E-03  6.91400E+01
   5  9 10  3.48438E-02  7.36100E+01
   6  8  0  1.89409E-06  5.02400E+01
   6 10  0  1.66869E-07  5.48400E+01
   7 10  0  5.15039E-08  5.35300E+01
   2 30 30  2.71042E-01  3.14926E+01
   3 30  0  1.37650E-10  1.07500E+01
   5 30  0  1.09171E-05  3.14025E+01
   5 30 30  9.17725E-01  2.06029E+01
   6 30 30  9.99998E-01  3.89837E+01
   7 30  0  1.70041E-06  4.90471E+01
   7 30 30  9.99999E-01  3.77629E+01
 *** RELAX:  Z = 26,  no. of shells = 10,  no. of transitions =  148
   1 1s1/2 2  7.11700E+03  1.19000E+00  3.31215E-02
   2 2s1/2 2  8.51000E+02  7.00000E+00  1.25935E-01
   3 2p1/2 2  7.26000E+02  1.14000E+00  6.41844E-02
   4 2p3/2 4  7.13000E+02  4.10000E-01  6.49062E-02
   5 3s1/2 2  9.80000E+01  2.40000E+00  3.51458E-01
   6 3p1/2 2  6.10000E+01  1.23000E+00  2.20645E-01
   7 3p3/2 4  5.90000E+01  1.23000E+00  2.22909E-01
   8 3d3/2 4  9.00000E+00  0.00000E+00  2.01788E-01
   9 3d5/2 2  9.00000E+00  0.00000E+00  2.02832E-01
  10 4s1/2 2  7.87000E+00  0.00000E+00  1.53122E+00
   1  3  0  1.01391E-01  6.39103E+03
   1  4  0  1.98621E-01  6.40401E+03
   1  6  0  1.22111E-02  7.05818E+03
   1  7  0  2.40042E-02  7.05818E+03
   1  8  0  6.00794E-06  7.10826E+03
   1  9  0  8.77226E-06  7.10826E+03
   1  2  2  4.47039E-02  5.39748E+03
   1  2  3  4.96309E-02  5.50689E+03
   1  2  4  9.05528E-02  5.51975E+03
   1  2  5  1.20010E-02  6.13943E+03
   1  2  6  6.37861E-03  6.17240E+03
   1  2  7  1.15700E-02  6.17399E+03
   1  2  8  1.85335E-04  6.22753E+03
   1  2  9  2.57546E-04  6.22770E+03
   1  2 10  1.06145E-03  6.23291E+03
   1  3  3  8.91045E-03  5.61630E+03
   1  3  4  2.13819E-01  5.62916E+03
   1  3  5  5.68040E-03  6.24884E+03
   1  3  6  2.15909E-03  6.28181E+03
   1  3  7  2.36911E-02  6.28340E+03
   1  3  8  2.57540E-04  6.33694E+03
   1  3  9  9.60385E-04  6.33711E+03
   1  3 10  4.93427E-04  6.34232E+03
   1  4  4  1.19207E-01  5.64202E+03
   1  4  5  1.04085E-02  6.26170E+03
   1  4  6  2.36893E-02  6.29467E+03
   1  4  7  2.68353E-02  6.29626E+03
   1  4  8  1.19389E-03  6.34980E+03
   1  4  9  1.17463E-03  6.34997E+03
   1  4 10  9.02593E-04  6.35518E+03
   1  5  5  8.02277E-04  6.88138E+03
   1  5  6  7.39263E-04  6.91435E+03
   1  5  7  1.34525E-03  6.91594E+03
   1  5  8  1.93914E-05  6.96948E+03
   1  5  9  2.66629E-05  6.96965E+03
   1  5 10  1.40581E-04  6.97486E+03
   1  6  6  1.28144E-04  6.94732E+03
   1  6  7  2.71062E-03  6.94891E+03
   1  6  8  2.21776E-05  7.00245E+03
   1  6  9  8.87081E-05  7.00262E+03
   1  6 10  6.40678E-05  7.00783E+03
   1  7  7  1.58655E-03  6.95050E+03
   1  7  8  1.16223E-04  7.00404E+03
   1  7  9  1.11167E-04  7.00421E+03
   1  7 10  1.21269E-04  7.00942E+03
   1  8  9  3.85858E-06  7.05775E+03
   1  8 10  3.85858E-06  7.06296E+03
   1  9 10  3.51272E-06  7.06313E+03
   2  3  0  2.87212E-05  1.09410E+02
   2  4  0  1.12411E-04  1.22270E+02
   2  6  0  5.33553E-04  7.92200E+02
   2  7  0  7.92105E-04  7.92200E+02
   2  8  0  1.62101E-06  8.44520E+02
   2  9  0  2.20171E-06  8.45440E+02
   2  3  8  4.09703E-02  9.65000E+01
   2  3  9  6.68427E-02  9.66700E+01
   2  3 10  6.19976E-03  1.01880E+02
   2  4  6  6.47652E-02  5.42300E+01
   2  4  7  1.45310E-01  5.58200E+01
   2  4  8  9.68238E-02  1.09360E+02
   2  4  9  1.37175E-01  1.09530E+02
   2  4 10  1.13749E-02  1.14740E+02
   2  5  5  1.42253E-02  6.40940E+02
   2  5  6  2.56412E-02  6.73910E+02
   2  5  7  5.02067E-02  6.75500E+02
   2  5  8  1.57957E-02  7.29040E+02
   2  5  9  2.33060E-02  7.29210E+02
   2  5 10  2.24577E-03  7.34420E+02
   2  6  6  4.09652E-04  7.06880E+02
   2  6  7  6.68243E-04  7.08470E+02
   2  6  8  2.32428E-04  7.62010E+02
   2  6  9  4.40741E-03  7.62180E+02
   2  6 10  1.77081E-03  7.67390E+02
   2  7  7  1.17810E-03  7.10060E+02
   2  7  8  4.46042E-03  7.63600E+02
   2  7  9  3.23254E-03  7.63770E+02
   2  7 10  3.28901E-03  7.68980E+02
   2  8  8  2.58444E-04  8.17140E+02
   2  8  9  1.35249E-02  8.17310E+02
   2  8 10  1.10876E-03  8.22520E+02
   2  9  9  3.53869E-03  8.17480E+02
   2  9 10  1.55434E-03  8.22690E+02
   3  5  0  4.03768E-03  6.27800E+02
   3  7  0  9.18115E-06  6.70400E+02
   3  8  0  1.40199E-03  7.18320E+02
   3 10  0  8.27386E-05  7.26020E+02
   3  5  5  5.72017E-03  5.31530E+02
   3  5  6  1.04744E-01  5.64500E+02
   3  5  7  8.48542E-03  5.66090E+02
   3  5  8  3.52272E-03  6.19630E+02
   3  5  9  6.29489E-03  6.19800E+02
   3  5 10  8.72234E-04  6.25010E+02
   3  6  6  8.91640E-02  5.97470E+02
   3  6  7  3.09321E-01  5.99060E+02
   3  6  8  6.45901E-02  6.52600E+02
   3  6  9  1.25120E-01  6.52770E+02
   3  6 10  9.30123E-03  6.57980E+02
   3  7  7  8.61400E-03  6.00650E+02
   3  7  8  7.55051E-02  6.54190E+02
   3  7  9  1.14600E-02  6.54360E+02
   3  7 10  6.69397E-04  6.59570E+02
   3  8  8  2.94353E-02  7.07730E+02
   3  8  9  1.34354E-01  7.07900E+02
   3  8 10  3.10265E-04  7.13110E+02
   3  9  9  6.45717E-03  7.08070E+02
   3  9 10  5.27395E-04  7.13280E+02
   4  5  0  3.75953E-03  6.15300E+02
   4  6  0  4.56623E-06  6.50100E+02
   4  7  0  4.45063E-06  6.56800E+02
   4  8  0  1.14991E-04  7.04800E+02
   4  9  0  1.28521E-03  7.04800E+02
   4 10  0  7.69576E-05  7.13160E+02
   4  5  5  5.47610E-03  5.18670E+02
   4  5  6  3.75614E-03  5.51640E+02
   4  5  7  1.02560E-01  5.53230E+02
   4  5  8  4.09120E-03  6.06770E+02
   4  5  9  5.60270E-03  6.06940E+02
   4  5 10  8.34691E-04  6.12150E+02
   4  6  6  1.43545E-03  5.84610E+02
   4  6  7  1.55075E-01  5.86200E+02
   4  6  8  3.86376E-03  6.39740E+02
   4  6  9  3.74865E-02  6.39910E+02
   4  6 10  2.90883E-04  6.45120E+02
   4  7  7  2.29412E-01  5.87790E+02
   4  7  8  9.02988E-02  6.41330E+02
   4  7  9  1.34973E-01  6.41500E+02
   4  7 10  9.09931E-03  6.46710E+02
   4  8  8  5.93307E-03  6.94870E+02
   4  8  9  1.20726E-01  6.95040E+02
   4  8 10  4.31648E-04  7.00250E+02
   4  9  9  8.28033E-02  6.95210E+02
   4  9 10  6.04329E-04  7.00420E+02
   5  8  8  1.07986E-03  7.51900E+01
   5  8  9  2.33924E-02  7.53600E+01
   5  8 10  2.57210E-02  8.05700E+01
   5  9  9  6.79262E-03  7.55300E+01
   5  9 10  3.82746E-02  8.07400E+01
   6  8  0  3.89240E-06  5.51300E+01
   6 10  0  3.74790E-07  6.05100E+01
   7  8  0  3.49259E-07  5.35400E+01
   7  9  0  3.18269E-06  5.37100E+01
   7 10  0  1.15860E-07  5.89200E+01
   2 30 30  2.58014E-01  3.13991E+01
   3 30  0  2.04719E-10  1.28600E+01
   5 30  0  1.44183E-05  3.40828E+01
   5 30 30  9.04726E-01  2.23033E+01
   6 30 30  9.99996E-01  4.28322E+01
   7 30 30  9.99996E-01  4.13518E+01
 *** RELAX:  Z = 28,  no. of shells = 10,  no. of transitions =  156
   1 1s1/2 2  8.33800E+03  1.39000E+00  3.06276E-02
   2 2s1/2 2  1.01500E+03  6.40000E+00  1.15436E-01
   3 2p1/2 2  8.77000E+02  9.80000E-01  5.86296E-02
   4 2p3/2 4  8.60000E+02  5.30000E-01  5.93958E-02
   5 3s1/2 2  1.17000E+02  2.30000E+00  3.20679E-01
   6 3p1/2 2  7.50000E+01  1.30000E+00  1.99846E-01
   7 3p3/2 4  7.30000E+01  1.30000E+00  2.02278E-01
   8 3d3/2 4  1.00000E+01  0.00000E+00  1.79793E-01
   9 3d5/2 4  1.00000E+01  0.00000E+00  1.81031E-01
  10 4s1/2 2  7.63500E+00  0.00000E+00  1.45309E+00
   1  3  0  1.21060E-01  7.46103E+03
   1  4  0  2.36419E-01  7.47825E+03
   1  6  0  1.48050E-02  8.26477E+03
   1  7  0  2.90299E-02  8.26477E+03
   1  8  0  1.26910E-05  8.32868E+03
   1  9  0  1.84450E-05  8.32868E+03
   1  2  2  4.06788E-02  6.28980E+03
   1  2  3  4.51818E-02  6.41132E+03
   1  2  4  8.10999E-02  6.42928E+03
   1  2  5  1.09920E-02  7.17766E+03
   1  2  6  5.89415E-03  7.21582E+03
   1  2  7  1.04968E-02  7.21809E+03
   1  2  8  2.45244E-04  7.28138E+03
   1  2  9  3.36680E-04  7.28164E+03
   1  2 10  9.04076E-04  7.28821E+03
   1  3  3  8.05326E-03  6.53284E+03
   1  3  4  1.91464E-01  6.55080E+03
   1  3  5  5.18552E-03  7.29918E+03
   1  3  6  1.97028E-03  7.33734E+03
   1  3  7  2.14086E-02  7.33961E+03
   1  3  8  3.40843E-04  7.40290E+03
   1  3  9  1.25951E-03  7.40316E+03
   1  3 10  4.17749E-04  7.40973E+03
   1  4  4  1.06181E-01  6.56876E+03
   1  4  5  9.34647E-03  7.31714E+03
   1  4  6  2.14238E-02  7.35530E+03
   1  4  7  2.41334E-02  7.35757E+03
   1  4  8  1.56286E-03  7.42086E+03
   1  4  9  1.52965E-03  7.42112E+03
   1  4 10  7.52322E-04  7.42769E+03
   1  5  5  7.61029E-04  8.06552E+03
   1  5  6  7.04933E-04  8.10368E+03
   1  5  7  1.25902E-03  8.10595E+03
   1  5  8  2.80260E-05  8.16924E+03
   1  5  9  3.66493E-05  8.16950E+03
   1  5 10  1.25036E-04  8.17607E+03
   1  6  6  1.24412E-04  8.14184E+03
   1  6  7  2.58160E-03  8.14411E+03
   1  6  8  3.11038E-05  8.20740E+03
   1  6  9  1.24412E-04  8.20766E+03
   1  6 10  5.77652E-05  8.21423E+03
   1  7  7  1.52067E-03  8.14638E+03
   1  7  8  1.61274E-04  8.20967E+03
   1  7  9  1.54360E-04  8.20993E+03
   1  7 10  1.08291E-04  8.21650E+03
   1  8  9  8.63385E-06  8.27322E+03
   1  8 10  2.87812E-06  8.27979E+03
   1  9  9  3.13604E-06  8.27348E+03
   1  9 10  3.13604E-06  8.28005E+03
   2  3  0  2.14808E-05  1.21520E+02
   2  4  0  9.31647E-05  1.39480E+02
   2  6  0  6.32143E-04  9.40700E+02
   2  7  0  9.67704E-04  9.40700E+02
   2  8  0  2.27301E-06  1.00762E+03
   2  9  0  2.97943E-06  1.00830E+03
   2  3  8  4.41388E-02  1.06600E+02
   2  3  9  7.15333E-02  1.06860E+02
   2  3 10  5.14809E-03  1.13430E+02
   2  4  6  6.04399E-02  5.90000E+01
   2  4  7  1.32102E-01  6.12700E+01
   2  4  8  1.07403E-01  1.24560E+02
   2  4  9  1.52509E-01  1.24820E+02
   2  4 10  9.25467E-03  1.31390E+02
   2  5  5  1.23365E-02  7.69220E+02
   2  5  6  2.23644E-02  8.07380E+02
   2  5  7  4.36083E-02  8.09650E+02
   2  5  8  1.91210E-02  8.72940E+02
   2  5  9  2.81122E-02  8.73200E+02
   2  5 10  1.80752E-03  8.79770E+02
   2  6  6  3.26025E-04  8.45540E+02
   2  6  7  6.74812E-04  8.47810E+02
   2  6  8  2.86845E-04  9.11100E+02
   2  6  9  5.60458E-03  9.11360E+02
   2  6 10  1.44563E-03  9.17930E+02
   2  7  7  1.07183E-03  8.50080E+02
   2  7  8  5.83763E-03  9.13370E+02
   2  7  9  4.19256E-03  9.13630E+02
   2  7 10  2.80996E-03  9.20200E+02
   2  8  8  4.63433E-04  9.76660E+02
   2  8  9  2.35853E-02  9.76920E+02
   2  8 10  1.25527E-03  9.83490E+02
   2  9  9  6.18041E-03  9.77180E+02
   2  9 10  1.75708E-03  9.83750E+02
   3  5  0  4.55671E-03  7.62000E+02
   3  7  0  1.39400E-05  8.07600E+02
   3  8  0  3.12391E-03  8.68770E+02
   3 10  0  1.08300E-04  8.76890E+02
   3  5  5  4.12943E-03  6.47700E+02
   3  5  6  7.62945E-02  6.85860E+02
   3  5  7  6.34256E-03  6.88130E+02
   3  5  8  3.11451E-03  7.51420E+02
   3  5  9  6.41691E-03  7.51680E+02
   3  5 10  5.84255E-04  7.58250E+02
   3  6  6  6.59229E-02  7.24020E+02
   3  6  7  2.27127E-01  7.26290E+02
   3  6  8  6.57901E-02  7.89580E+02
   3  6  9  1.25998E-01  7.89840E+02
   3  6 10  6.29326E-03  7.96410E+02
   3  7  7  6.31775E-03  7.28560E+02
   3  7  8  7.81152E-02  7.91850E+02
   3  7  9  1.16208E-02  7.92110E+02
   3  7 10  4.65414E-04  7.98680E+02
   3  8  8  5.11766E-02  8.55140E+02
   3  8  9  2.32640E-01  8.55400E+02
   3  8 10  3.04350E-04  8.61970E+02
   3  9  9  9.37841E-03  8.55660E+02
   3  9 10  5.00110E-04  8.62230E+02
   4  5  0  4.26136E-03  7.42720E+02
   4  6  0  7.03973E-06  7.84700E+02
   4  7  0  6.83503E-06  7.89900E+02
   4  8  0  2.62697E-04  8.51470E+02
   4  9  0  2.85977E-03  8.51470E+02
   4 10  0  9.78831E-05  8.58930E+02
   4  5  5  4.25752E-03  6.29740E+02
